0.066152
0.194847
0.805401
-0.029142
-0.447210
-0.560939
0.166073
0.631595
0.618623
0.113154
-0.453255
0.512011
0.673203
0.764594
0.843585
0.535306
0.057860
-0.024227
0.738994
0.786623
1.434565
0.286023
0.169273
0.436450
0.746214
0.882402
1.394420
0.836389
0.234140
0.503800
1.032909
1.776799
1.345978
0.897295
0.446157
0.185283
1.131097
1.071625
1.450754
1.038447
0.850733
0.148244
1.339385
1.504702
1.369205
1.211782
0.845382
0.731530
0.972602
1.957343
1.771519
1.173085
1.139566
0.983989
1.103737
1.927541
1.456717
1.183097
1.003219
1.065805
1.440684
1.482387
2.041501
1.705226
1.260824
0.920143
1.394651
1.708520
1.966962
1.538597
0.904474
1.245636
1.667472
2.063122
1.781991
1.232300
1.197103
1.355115
1.239015
1.486114
2.212017
1.475838
1.286457
1.243084
1.229715
1.813858
1.726393
1.488811
1.244992
1.014164
1.006576
2.096637
1.839470
1.302757
0.529147
1.012090
1.406277
1.844296
1.546705
1.168428
0.682760
1.207544
1.102411
1.643052
1.486708
1.395675
0.759329
0.757090
1.343653
1.703553
1.704924
0.666905
0.682682
0.809739
1.096819
1.617072
1.837381
1.205853
0.274072
0.307869
0.857322
1.160565
1.247310
1.049363
0.237755
0.259766
0.677109
1.262861
1.307333
0.608776
0.113676
0.334980
0.696844
1.053508
1.579552
0.469866
0.068790
-0.046339
0.496319
0.670539
0.946422
0.646892
-0.165802
-0.227553
0.075307
0.495091
0.217823
0.083442
-0.546468
-0.150421
0.031168
0.412586
0.649910
-0.449315
-0.492599
-0.801386
-0.316674
0.265576
0.361198
-0.448396
-0.634251
-0.483857
-0.544051
-0.168792
-0.002875
-0.338143
-0.926013
-1.119136
-0.529157
-0.106847
-0.266005
-0.862767
-1.012894
-1.124539
-0.795228
-0.443235
-0.444093
-0.977179
-1.471119
-1.035997
-0.929969
-0.819692
-0.596357
-0.744059
-1.520774
-1.081241
-1.182724
-0.767077
-0.845323
-0.860685
-1.663751
-1.485045
-1.485395
-0.857063
-0.629936
-1.469606
-1.654712
-1.572714
-0.910803
-0.721816
-0.676685
-1.385311
-1.878082
-1.765286
-1.535905
-0.712890
-0.794616
-1.202166
-1.586779
-1.871161
-1.542016
-0.897840
-0.781339
-1.281199
-1.704266
-1.599008
-1.414363
-0.805162
-1.053265
-1.330272
-2.205512
-1.619331
-1.852021
-1.024540
-1.135900
-1.731797
-1.865518
-1.865248
-1.214798
-1.034354
-0.943245
-1.439554
-1.623387
-1.685896
-1.471300
-1.009342
-0.671469
-1.500769
-1.706158
-2.044663
-1.578974
-0.810995
-0.843249
-1.183046
-1.942446
-1.599733
-1.322855
-0.920050
-0.558464
-1.027051
-2.182266
-1.644761
-1.436540
-0.876279
-0.925561
-0.888630
-1.379594
-1.497497
-1.015086
-0.610847
-0.544908
-1.043195
-1.540423
-1.380963
-1.088800
-0.649557
-0.601066
-0.973762
-1.363129
-0.833552
-1.126326
-0.637408
-0.347863
-0.813862
-1.356083
-1.117615
-0.572032
-0.492676
-0.315513
-0.896250
-1.026402
-0.981526
-0.415672
-0.307119
-0.000789
-0.492187
-0.588170
-0.775043
-0.480472
0.044700
0.013901
0.006732
-0.785386
-0.973504
-0.228248
0.504921
0.440154
-0.061369
-0.138745
-0.581969
0.051807
0.290060
0.338243
0.025318
-0.177973
0.134605
0.347788
0.437922
0.642135
0.170183
-0.179734
0.145560
0.448514
1.034707
0.987251
0.304948
0.246451
-0.180232
0.712145
1.134214
1.263203
0.354721
0.193213
0.265514
0.742701
1.358284
1.350192
0.934143
0.432781
0.758260
0.816658
1.360141
1.249396
0.943830
0.692236
0.325215
1.065007
1.335544
1.662399
0.700376
0.290600
1.027339
1.125886
1.214899
1.290580
1.196141
0.860188
0.883878
1.479890
1.782647
1.717354
1.524011
1.308065
0.915894
1.309136
2.011026
1.714362
1.098049
0.951613
1.032605
1.455743
1.645375
1.758368
1.316977
1.218367
1.008049
1.603312
2.031710
1.878421
1.092012
1.131358
1.202517
1.346521
1.928313
1.844351
1.840267
1.060544
1.106455
1.287478
1.780678
1.653483
1.633889
1.172333
0.880324
2.050960
2.084061
1.974539
1.836112
0.520594
0.984754
1.421649
1.889564
1.631273
1.500538
0.506358
0.958789
1.445022
1.768382
1.835180
1.161720
0.975930
0.775106
0.934660
1.620349
1.540748
1.008607
0.862782
0.750622
1.104824
1.458958
1.883049
1.328054
0.600884
0.633797
1.329333
1.795363
1.633668
0.890966
0.382146
0.624203
0.708931
1.074908
1.192053
0.994916
0.375884
0.365976
0.947580
1.174882
0.872253
0.807088
0.272361
0.130583
0.469580
0.846954
0.921511
0.303423
-0.101903
-0.326968
0.269306
0.636893
0.860411
0.572065
0.024237
-0.004523
0.323242
0.699124
0.708527
-0.051782
-0.203559
-0.641309
0.123755
0.235117
0.176100
-0.184888
-0.819071
-0.586610
0.034132
0.164013
0.282000
-0.248664
-0.502516
-0.807202
-0.314441
0.523176
0.228712
-0.650294
-0.702354
-1.140716
-0.550205
-0.090387
-0.003092
-0.718121
-0.992394
-0.774009
-1.103728
-0.532337
-0.105040
-0.862530
-1.270736
-1.104296
-0.437066
-0.734265
-0.680507
-0.971636
-1.413042
-1.415338
-1.089314
-0.372553
-0.820609
-1.052658
-1.349780
-1.493465
-1.280195
-0.718416
-0.825261
-1.333462
-1.394106
-1.721928
-1.382092
-1.001228
-0.841786
-1.613628
-2.091550
-1.738001
-1.615194
-1.017275
-0.794701
-1.210235
-1.530029
-2.051490
-1.255243
-0.937909
-0.761243
-1.408843
-1.730342
-1.672350
-1.555773
-1.138194
-1.316706
-1.505672
-1.853706
-2.076380
-1.482634
-1.136952
-1.152997
-1.344134
-1.769419
-1.702036
-1.714032
-1.088951
-0.927752
-1.746864
-1.531573
-1.865356
-1.582435
-0.827646
-0.951928
-1.431024
-2.013794
-2.222070
-1.619298
-1.112678
-0.882405
-1.271765
-1.972868
-1.637696
-1.223757
-0.935655
-1.086538
-1.136052
-1.757995
-1.918756
-1.216034
-0.711652
-1.091037
-0.840244
-2.057618
-1.935600
-0.910966
-0.637445
-0.767487
-1.091134
-1.358458
-1.656112
-0.841189
-0.431220
-0.556148
-0.917894
-1.490487
-1.511234
-0.959420
-0.217356
-0.445019
-0.894065
-1.405907
-1.409702
-0.718206
-0.053883
0.012357
-0.526633
-1.104925
-1.087807
-0.479060
0.097642
0.134561
-0.887310
-0.875853
-1.029749
-0.467285
0.437532
-0.034361
-0.617831
-0.647760
-0.677033
-0.271111
0.452112
0.420722
-0.019002
-0.551217
-0.394407
-0.058261
0.501642
0.611146
0.162117
-0.442061
-0.383623
-0.020032
0.851594
0.677955
0.149672
0.014404
-0.192653
0.462236
1.139719
1.054112
0.431493
0.037520
0.477271
0.518027
1.074520
1.108315
0.823636
0.276998
0.335181
0.787061
1.720813
1.385267
0.628442
0.153585
0.100090
1.249694
1.176126
1.563161
1.062900
0.241773
0.975255
1.137280
1.846536
1.573251
1.129365
0.477841
0.710000
1.183195
1.304342
1.624024
1.246175
0.654481
0.898490
1.023966
1.601310
1.753129
1.193441
0.980652
0.837993
1.182418
1.989650
1.935816
1.508937
1.109932
1.185436
1.624759
1.875730
1.787703
1.430743
1.274927
0.794637
1.360552
2.120668
2.086122
1.389065
1.017407
1.030567
1.441960
1.443047
1.847219
1.561812
1.556973
0.773146
1.369932
1.850657
1.736340
1.353417
0.666047
1.023498
1.369729
2.007231
1.904863
1.666038
1.335878
1.027337
1.178977
1.898402
2.118587
1.375570
1.027307
0.744043
1.659078
1.857346
1.677890
0.979655
0.728499
0.644597
1.167980
1.751756
1.830607
1.244652
0.778525
0.817451
1.686410
1.635048
1.575884
1.409020
0.656606
0.481886
1.213199
1.365131
1.453564
1.131386
0.660299
0.153219
0.409268
1.148743
1.593481
0.850755
0.313677
0.285810
0.930263
1.194054
1.195127
0.220569
0.142285
0.152098
0.380181
0.951281
0.805849
0.637506
-0.113627
0.231303
0.364506
0.954645
1.201851
0.294437
0.116058
-0.428381
0.552669
0.348120
0.545451
0.028819
-0.600029
-0.663207
0.129277
0.123758
0.102063
0.131589
-0.558190
-0.513869
-0.368266
0.174529
0.244248
-0.247581
-0.387264
-0.900355
-0.403027
0.196076
0.189083
-0.858273
-1.004688
-1.091213
-0.555391
-0.045226
-0.088126
-0.410489
-1.010429
-1.064869
-0.533512
-0.231255
-0.608949
-0.781776
-1.594044
-1.066949
-1.303250
-0.583853
-0.479857
-0.963780
-1.036558
-1.425616
-1.149599
-0.499079
-0.880038
-0.984387
-1.497544
-1.647055
-1.280178
-0.980623
-1.137476
-1.298327
-1.509288
-1.825180
-0.949564
-1.027696
-0.437859
-1.452896
-1.742459
-1.489585
-1.110560
-1.088834
-0.802066
-1.617537
-2.180110
-1.717345
-1.772513
-1.430581
-1.023741
-1.175737
-1.649818
-2.199244
-1.465974
-0.885407
-0.856125
-1.176025
-1.607546
-1.756492
-1.781937
-1.057731
-1.342641
-1.253386
-1.584268
-2.331996
-1.329941
-1.130290
-1.154363
-1.665992
-1.664235
-1.835367
-1.497204
-0.950759
-0.824711
-1.626778
-2.036693
-1.731291
-1.109450
-0.733516
-0.996031
-1.661019
-2.284369
-1.988644
-1.131327
-1.020380
-0.839546
-1.271904
-2.172603
-1.465844
-0.861551
-0.824149
-0.598994
-1.364992
-1.508579
-1.183909
-0.893425
-0.842468
-0.885627
-1.082830
-1.552126
-1.495055
-0.772599
-0.526456
-0.214314
-0.964728
-1.391381
-1.181271
-0.796423
-0.465038
-0.714706
-1.027016
-1.086682
-1.074320
-1.016210
-0.237950
-0.128069
-0.873718
-1.242761
-0.775478
-0.902926
-0.000539
0.135325
-0.821777
-0.892598
-1.071440
-0.355042
0.006053
-0.209042
-0.157478
-0.563934
-0.775825
-0.082425
0.007356
0.060543
-0.324874
-0.517692
-0.569265
0.382260
0.450205
0.608193
0.209000
-0.233149
-0.237881
0.436817
0.419305
1.010220
0.418338
-0.351042
0.131545
0.609548
1.177858
0.782497
0.791401
0.112981
-0.202851
0.396953
1.200184
1.401709
0.402039
0.211705
0.130578
1.098577
1.003797
1.476354
0.678826
0.552410
0.158207
1.181733
0.899331
1.429237
1.040337
0.382978
0.377391
1.148690
1.275265
1.499074
0.529500
0.265495
0.693529
1.379361
1.278652
1.763541
1.312390
0.681017
0.811584
1.704754
1.435943
1.828071
1.355970
0.960710
0.909379
1.413518
1.753063
1.477116
1.277861
1.019799
1.035309
1.547316
2.313185
1.546930
1.588957
1.054522
1.026611
1.334803
1.886502
2.052994
1.573415
0.737636
1.242969
1.546943
2.310543
1.710208
1.355592
0.716221
1.066394
1.696069
1.831958
1.820975
1.429240
1.018786
1.250685
1.476610
1.803703
2.020316
1.179987
1.131456
0.961667
1.854458
1.719815
1.923654
1.418238
0.733626
1.112411
0.911984
1.387358
1.500399
1.575585
1.062819
0.599756
1.230541
1.533713
1.711385
1.633794
0.586449
1.132285
1.062715
1.438122
1.669656
1.235278
0.694656
0.322991
0.888557
1.263111
1.310642
0.799719
0.583867
0.676194
0.831544
1.399930
1.414876
0.830509
0.289516
0.208462
0.490010
1.073253
1.131866
0.601327
0.220673
0.157508
0.686252
0.829771
0.902631
0.511938
-0.074682
0.026456
0.018144
0.867255
0.837245
0.280834
-0.253447
-0.300486
-0.152955
0.808949
0.685684
-0.123251
-0.665652
-0.478649
0.136167
0.568129
0.477119
0.059419
-0.207552
-0.930668
-0.094098
0.203027
0.033085
-0.137719
-0.745983
-0.535516
-0.579838
-0.139881
0.086149
-0.641030
-0.902066
-1.036252
-0.332851
-0.060926
-0.258493
-0.766407
-1.180942
-0.649184
-0.732555
-0.357502
-0.383535
-0.500477
-1.609542
-1.066589
-1.025534
-0.528559
-0.363228
-1.143426
-1.328000
-1.451617
-1.306582
-0.578021
-0.522618
-0.965881
-1.660926
-1.571733
-1.031305
-0.635840
-0.839650
-1.467859
-1.610216
-1.618901
-0.966818
-1.160794
-0.936884
-1.227614
-1.782614
-1.370827
-1.430683
-1.410060
-0.803810
-1.674469
-1.575958
-1.768812
-1.495418
-1.198979
-0.640262
-1.390967
-1.991202
-2.039211
-1.509509
-0.794725
-0.668747
-1.482733
-1.839370
-1.863079
-1.826834
-1.037604
-1.166267
-1.585555
-1.962859
-2.509859
-1.643949
-0.910484
-1.034612
-1.591353
-1.985093
-2.128005
-1.612909
-1.150808
-1.064581
-1.335283
-1.881965
-1.884944
-1.593688
-0.787828
-0.925815
-1.281455
-1.771949
-1.641789
-1.054735
-0.996882
-0.787781
-1.178600
-1.733804
-1.333671
-1.462215
-0.913595
-0.783132
-1.208285
-1.672364
-1.704494
-0.990852
-0.714561
-0.843057
-0.750885
-1.322290
-1.184739
-1.032170
-0.187518
-0.363183
-1.317756
-1.617796
-1.223185
-0.904915
-0.451820
-0.182121
-0.463302
-1.131806
-1.157546
-0.272444
-0.264067
-0.324050
-0.757679
-1.190252
-0.997947
-0.724358
-0.461527
-0.317265
-0.376285
-0.648304
-0.595872
0.089538
-0.126309
0.394052
-0.264736
-0.776722
-0.737413
-0.010075
0.406170
-0.053740
0.110754
-0.330780
-0.511693
-0.196253
0.310509
0.248602
0.084143
-0.385229
-0.338609
0.232273
0.592672
0.343727
0.161330
-0.225815
-0.433652
0.550170
0.403063
0.950986
0.404564
-0.012563
0.219377
0.491480
0.968918
0.868801
0.863821
0.432264
0.399219
0.828881
1.328300
1.348904
0.882560
0.523399
0.281237
0.887547
1.449987
1.219638
0.956289
0.509616
0.818968
1.121318
1.701402
1.629256
1.295300
0.662805
0.725510
1.030138
1.686067
2.242662
1.233043
0.789592
0.988020
0.953768
1.941705
1.562536
1.427961
0.951612
0.897150
1.213785
1.886793
2.040719
1.531193
1.252129
0.705834
1.430437
1.598921
1.900684
1.561201
0.873822
1.290774
1.378460
2.036693
1.847382
1.336507
0.911337
0.771519
1.801191
1.442250
1.674674
1.103085
0.798069
0.507304
1.617477
1.935841
1.718612
1.227977
0.787300
0.990290
1.069012
1.981580
1.875416
1.384422
1.142176
1.072116
1.357648
1.855734
1.812266
1.269457
1.172070
1.177739
1.371717
1.571231
1.527724
1.364661
0.813101
0.687396
1.292895
1.445464
1.732821
0.895107
0.271030
0.700903
0.959384
1.874729
1.822264
0.971029
0.445349
0.573203
0.963604
1.713772
1.343485
1.197238
0.746158
0.977831
0.805788
1.194029
1.598245
0.656066
-0.019073
0.334333
0.822682
1.055361
1.029827
0.366087
0.521653
0.188535
0.442649
1.036233
1.093192
0.253866
0.045588
-0.126107
0.703178
0.807324
0.519943
0.258859
-0.093049
0.206229
0.195913
0.704120
0.798675
0.195940
-0.544152
-0.433812
-0.131565
0.542949
0.678263
-0.098574
-0.347577
-0.729157
-0.156140
0.178594
0.508911
-0.222279
-0.591338
-0.843776
-0.499715
0.108574
-0.164223
-0.735871
-0.986736
-0.636036
-0.630651
-0.104095
-0.295837
-1.048748
-1.099880
-0.789225
-0.788936
-0.547016
-0.542162
-0.730902
-1.347166
-1.092359
-0.936831
-0.890991
-0.586603
-0.813751
-1.207848
-1.179722
-0.826677
-0.401804
-0.259890
-0.786566
-1.512612
-1.663729
-1.211720
-0.602001
-0.520147
-1.263037
-1.362202
-1.827384
-1.359558
-0.927424
-0.998415
-1.140480
-1.799735
-1.406273
-1.358466
-0.564049
-1.435776
-1.322301
-1.782239
-1.462539
-1.374240
-0.647134
-0.633184
-1.576938
-2.131512
-1.728595
-1.636446
-1.077412
-1.165142
-1.468010
-1.805511
-1.785311
-1.469912
-1.255053
-1.236044
-1.441539
-2.369544
-2.166586
-1.810194
-1.127316
-0.961726
-1.015222
-1.917747
-2.125534
-1.564141
-0.942564
-0.822986
-1.544690
-1.878679
-1.631820
-1.381837
-0.967473
-1.039124
-1.471590
-1.604207
-1.909663
-1.366695
-1.117319
-0.775544
-1.264625
-1.643742
-1.721444
-1.414912
-0.833432
-1.055533
-1.281245
-1.166370
-1.274090
-0.982215
-0.614867
-0.516393
-1.015553
-1.318372
-1.241355
-1.231072
-0.608881
-0.552548
-1.067160
-1.563571
-1.085487
-0.748115
-0.605213
-0.607610
-0.718300
-1.347821
-1.422673
-0.772122
-0.430878
-0.064017
-0.177354
-1.383308
-0.846786
-0.467700
-0.258356
0.132044
-0.641200
-1.243010
-1.061055
-0.257402
0.172548
0.321676
-0.182917
-0.431095
-1.053100
-0.248901
0.203579
0.295919
0.119251
-0.631111
-0.413936
-0.382133
0.281355
0.683855
-0.254507
-0.024527
-0.373040
0.293553
0.416882
0.834128
0.280790
0.129667
-0.199835
0.225964
0.685177
1.261502
0.397583
-0.261515
0.279559
0.557177
0.943112
1.146481
0.816165
0.106504
0.284111
0.660500
1.067393
1.305158
0.948014
0.123047
0.645083
0.911446
1.292704
1.047038
0.904694
0.533206
0.591443
0.939520
1.667727
1.818327
1.342179
0.635595
0.769601
1.237114
1.484193
1.625510
1.095582
0.812462
1.138377
1.229085
1.569907
2.007539
1.489074
0.791212
0.763155
1.639420
1.809605
1.852858
1.464521
0.847099
1.201328
1.897212
1.371427
1.917350
1.641947
0.868188
1.052156
1.507550
1.792057
2.058235
1.731142
1.103415
1.135659
1.387740
2.155395
1.914630
1.588131
1.301611
1.006224
1.458203
1.945863
1.880132
1.234386
1.147377
0.757675
1.412540
1.618556
2.153671
1.469953
1.107522
0.950399
1.743953
1.768781
2.069276
1.625290
0.844663
1.023177
1.382561
2.199578
1.563474
0.997550
0.928196
0.656112
1.148662
1.748681
1.405126
1.427866
0.846064
1.027009
1.093400
1.751111
1.323948
1.141620
0.863381
0.486840
1.044295
1.763644
1.256242
0.734058
0.685431
0.469189
0.661542
1.110341
1.332354
0.852717
0.273712
0.362799
0.835517
0.981763
1.036013
0.493538
0.445070
-0.107478
0.875007
0.841917
0.925906
0.655033
0.148091
-0.097912
0.550750
0.539594
1.021175
0.513161
-0.179157
-0.133110
0.383901
0.524258
0.667611
0.231626
-0.295809
-0.685706
-0.067133
0.006350
0.293597
-0.252157
-0.577738
-0.514324
-0.021997
0.185255
0.190888
-0.078415
-0.485538
-0.732021
-0.200784
-0.116347
0.316589
-0.596080
-1.079820
-0.848246
-0.565253
-0.465559
0.038401
-0.499628
-0.770440
-1.068989
-0.581634
-0.547277
0.027865
-0.329448
-1.339364
-1.428039
-0.681656
-0.700942
-0.467987
-0.983100
-1.247818
-1.830478
-1.002133
-0.564099
-0.992915
-1.125221
-1.421895
-1.823659
-1.215778
-0.703158
-0.866299
-0.898889
-1.510849
-1.798146
-1.200167
-0.624270
-0.816382
-1.203076
-1.633690
-1.628751
-1.621789
-1.072664
-1.020360
-1.714150
-2.119313
-1.778048
-1.354803
-0.818047
-0.938612
-1.606231
-1.896526
-2.043536
-1.299999
-1.348171
-0.879006
-1.388553
-1.770177
-2.043476
-1.457614
-1.073878
-1.368828
-1.403043
-1.844165
-2.080318
-1.249034
-1.414751
-1.140969
-1.566338
-2.059665
-2.044796
-1.376821
-1.208968
-1.013580
-1.537899
-1.903429
-1.482522
-1.534956
-0.806448
-0.965337
-1.388369
-2.196329
-1.599176
-1.326336
-0.997358
-0.888807
-1.336262
-1.365646
-1.937428
-1.378799
-0.763808
-0.427878
-1.162058
-1.405580
-1.458029
-1.011981
-0.444972
-0.223459
-1.063936
-1.562726
-1.445065
-1.087457
-1.032952
-0.570308
-0.922568
-1.437994
-1.383286
-0.634430
-0.406554
-0.403054
-0.936009
-1.321502
-1.203193
-0.697045
-0.184210
0.093108
-0.367356
-1.282557
-0.662968
-0.749287
0.424397
-0.020430
-0.551271
-1.270821
-0.915989
-0.064606
0.007954
0.030981
-0.543674
-0.917950
-0.767874
-0.115994
-0.136237
0.440967
-0.190408
-0.334961
-0.465295
-0.088539
0.564979
0.596857
0.499210
-0.567736
-0.416626
-0.056689
0.538112
0.582087
0.192786
-0.214930
-0.192564
0.325608
0.922039
1.089303
0.390534
0.425773
0.264397
0.796121
0.818246
0.677480
0.704058
0.302806
-0.078121
0.425456
1.253425
1.417343
1.075009
0.213422
0.543982
1.004527
1.333496
1.154360
0.735241
0.695222
0.234270
0.967835
1.510603
1.723315
1.021623
0.403207
0.772088
1.011838
1.964049
1.454219
1.247726
1.207194
1.027191
1.263109
1.811892
2.212600
1.594589
0.630613
0.947498
1.570212
1.496361
1.873542
1.381032
1.030585
0.822537
1.061188
1.654505
2.252735
1.426928
0.837050
1.327781
1.657228
1.739488
2.131912
1.710251
0.904018
1.169704
1.422892
2.181857
1.680271
1.418293
1.230816
1.049765
1.612319
2.275261
1.839524
1.269007
1.363353
0.958501
1.537088
1.783842
1.579622
1.263408
1.274179
0.919938
1.396548
1.909585
2.074299
1.425144
0.898084
0.766811
1.473804
1.358919
1.527322
1.461725
0.955399
0.594666
1.373895
1.776288
1.427876
1.199170
1.082200
0.643823
0.886261
1.600256
1.435699
1.021712
0.720729
0.605516
0.950532
1.230363
1.249093
0.751434
0.377676
0.825990
0.911209
1.179212
1.237527
0.852806
0.399243
0.380731
0.940738
1.059180
1.170989
0.514946
-0.194698
0.033873
0.835782
0.884952
1.130689
0.583889
-0.118915
0.353038
0.547721
0.956054
0.562953
0.151657
-0.053571
0.026062
0.182724
0.932192
0.532970
0.237797
-0.369526
-0.182809
-0.065416
0.395322
0.068536
-0.033735
-0.540582
-0.484186
-0.120360
0.080021
0.315667
0.240960
-0.873173
-0.589082
-0.488588
-0.152052
-0.225097
-0.348452
-0.919664
-0.781131
-0.590190
-0.383333
-0.216762
-0.653422
-0.977485
-1.370043
-1.091256
-0.225219
-0.499337
-0.901895
-1.153023
-1.285417
-0.848693
-0.237025
-0.285528
-0.955417
-1.519478
-1.675466
-0.963668
-0.153867
-0.429281
-1.048461
-1.767308
-1.813678
-1.261775
-1.490964
-0.678304
-0.964827
-1.642620
-1.747811
-0.995913
-0.935582
-0.981900
-1.129266
-1.761216
-1.903479
-1.185575
-1.033461
-0.651841
-1.520543
-1.957726
-1.975316
-1.355334
-0.741949
-0.938596
-1.298459
-1.642316
-1.925901
-1.283706
-1.070881
-0.630908
-1.436116
-2.033891
-1.907666
-1.643621
-1.370503
-0.996702
-1.453428
-1.801884
-2.100688
-1.658063
-1.159877
-1.259912
-0.949901
-1.842614
-2.042632
-1.388566
-0.788303
-0.891836
-1.269545
-1.781607
-2.170421
-1.578563
-0.771583
-1.012527
-1.342824
-1.704823
-2.007615
-1.319218
-0.997513
-1.191126
-1.235813
-1.900867
-1.816626
-1.534336
-0.936962
-0.710805
-0.899224
-1.854117
-1.539489
-1.051092
-0.493687
-0.429731
-1.314629
-1.492447
-1.236369
-0.917800
-0.290688
-0.303821
-0.487376
-1.888739
-1.406281
-0.949405
-0.707782
-0.501322
-0.519294
-1.198195
-0.990896
-0.395649
-0.319985
-0.315864
-0.902093
-1.098577
-1.157225
-0.596044
-0.134962
-0.205960
-0.692462
-0.942098
-0.833467
-0.552169
0.160934
0.092320
-0.333203
-0.500819
-0.190901
-0.018471
0.404758
0.308440
-0.068228
-0.379540
-0.575022
-0.298512
0.550249
0.355453
0.172929
-0.473604
-0.526903
-0.092686
0.708358
1.074074
0.321160
-0.023044
-0.061725
0.419054
1.309487
0.710307
0.431748
-0.074455
0.232655
0.603225
0.948834
1.191539
0.437528
0.257824
0.302020
1.037401
1.290738
1.216665
0.535391
0.102893
0.541184
0.741641
1.291673
1.190851
0.992457
0.592694
0.919627
1.390395
1.694834
1.721519
0.859519
0.936859
0.514165
0.835880
2.241804
1.691541
1.080938
0.800296
0.830171
0.852486
1.572949
1.837915
1.321568
0.563714
0.812256
1.327227
1.819597
1.480052
1.445732
1.278721
0.665007
1.514343
2.137722
1.953826
1.570688
0.932348
0.997171
1.244488
1.887706
1.806398
1.356565
1.348220
1.038315
1.623027
2.006758
1.729706
1.122028
0.779907
1.120860
1.436798
2.079653
1.848806
1.223711
1.070162
1.266191
1.526515
1.863043
1.809194
1.706499
1.194593
0.917036
1.157306
1.666867
1.905601
1.176147
0.872392
0.912818
1.225285
1.651685
1.717056
1.204292
0.597572
0.997352
1.082582
1.889402
1.596055
1.151949
1.020896
0.794745
1.075315
1.403114
1.444287
1.173435
0.808123
0.626085
0.928236
1.503796
1.547386
0.871804
0.787334
0.401030
1.061336
1.482752
1.274426
0.786807
0.518430
-0.043744
0.729379
1.141784
1.173083
0.461697
-0.104943
-0.379415
0.661207
1.171472
0.837447
0.939391
-0.127660
-0.291889
0.343897
0.796696
0.881351
0.305280
-0.335584
-0.518493
0.070661
0.317057
0.703248
0.073460
-0.740800
-0.328480
-0.184482
0.671675
0.380639
-0.048339
-0.716005
-0.485202
-0.175019
0.257122
0.118805
-0.152396
-1.232721
-0.742403
-0.163394
-0.008500
0.115092
-0.582625
-0.891763
-1.072666
-0.323182
-0.054272
0.098093
-0.647021
-1.111827
-1.065296
-0.432952
-0.795017
-0.679339
-0.550390
-0.884393
-1.330038
-0.610915
-0.039847
-0.460770
-1.047241
-1.508582
-1.487935
-0.867086
-0.650612
-0.231234
-1.161389
-1.690901
-1.459601
-1.108708
-0.650022
-1.180557
-1.243526
-2.031442
-1.645327
-1.113494
-0.614118
-0.715432
-1.217645
-1.607231
-1.787913
-1.364941
-0.733216
-0.732325
-1.488831
-2.198392
-2.308642
-1.751100
-1.202981
-0.922308
-1.608043
-1.910448
-1.826356
-1.750673
-1.216031
-1.200772
-1.648530
-2.012645
-1.770316
-1.598534
-0.926809
-0.998593
-1.461629
-1.737677
-1.503665
-1.203574
-1.378533
-0.952788
-1.737541
-2.319080
-2.154149
-1.909813
-1.260464
-0.756496
-1.548172
-1.341612
-1.790829
-1.225785
-1.012751
-1.028826
-1.551338
-1.783644
-2.099918
-1.527254
-1.124400
-0.862625
-1.011280
-1.300545
-2.067200
-1.197142
-0.947189
-1.015007
-1.192849
-1.722180
-1.598329
-1.002069
-0.889576
-0.712247
-1.433524
-1.581372
-1.284737
-1.375960
-0.492513
-0.817518
-0.912337
-1.454793
-1.395617
-1.202456
-0.605271
-0.435679
-0.789404
-1.248316
-1.311259
-0.456920
-0.300824
-0.389119
-0.790398
-1.058237
-0.828485
-0.637100
0.084468
-0.014982
-0.576191
-1.030005
-0.800924
-0.393700
-0.090512
-0.037723
-0.173246
-0.578833
-0.714417
-0.022774
0.206232
0.284395
0.152779
-0.603810
-0.873017
-0.257776
0.522596
0.452668
0.644454
-0.590511
-0.324994
0.196050
0.377371
0.899003
0.429858
0.187427
0.047018
-0.336999
0.642982
0.928918
0.300512
0.116961
0.076598
0.442687
1.027897
1.145712
0.867288
0.055151
0.147577
0.578502
1.352592
1.524579
1.014884
0.665277
0.472913
0.721337
1.475861
1.710010
1.057348
0.732960
0.261984
1.141032
1.451723
1.615387
1.348810
0.553822
1.003667
0.967091
1.616719
1.689199
1.426890
0.734082
0.629194
1.549815
1.788588
1.349315
1.378445
0.556175
1.068738
1.634674
1.766775
1.634129
1.640051
0.870770
0.819857
1.174231
1.575462
1.932912
1.386525
1.185053
1.022870
1.431494
1.567714
1.761828
1.509058
0.973141
1.316736
1.130754
1.895457
1.955599
1.355528
1.089059
1.397925
1.286962
1.857576
1.640979
1.633760
0.809685
0.874343
1.758022
2.064918
1.742187
1.656183
0.879912
1.024172
1.793458
2.301010
1.750305
1.388663
1.157600
1.058808
1.310636
1.734686
1.605512
0.860064
0.834695
0.610460
1.220904
2.176054
1.671514
1.515431
0.539639
0.997642
0.821047
1.512520
1.605881
1.217473
0.613844
0.400038
0.783285
1.292277
1.209310
0.840319
0.308604
0.722297
0.935661
1.345776
1.095303
0.859103
0.408630
0.129777
0.484796
0.740970
1.274524
0.436239
0.186440
0.164883
0.570430
0.828230
0.881042
0.402143
0.270449
-0.260870
0.331852
0.988819
0.829094
0.063430
-0.024229
-0.754255
0.089482
0.903355
0.658222
0.252507
-0.388790
-0.477642
0.139183
0.865011
0.316519
0.193218
-0.666390
-0.675820
-0.057853
0.033478
0.371315
-0.617725
-1.229030
-0.807323
-0.307258
0.284714
0.023399
-0.272640
-0.878201
-0.819971
-0.745941
-0.163542
-0.296650
-0.686067
-0.640635
-1.408788
-0.715795
-0.381167
-0.268151
-0.445204
-1.080637
-1.420466
-1.168431
-0.304287
-0.697133
-1.099189
-1.320074
-1.741198
-0.715571
-0.595918
-0.685514
-0.931888
-1.386487
-1.618339
-0.935303
-0.669065
-0.541782
-1.160831
-1.702955
-1.332645
-1.423133
-0.723417
-0.461548
-1.397130
-1.635391
-1.712670
-1.426890
-0.938016
-0.826225
-0.928969
-1.661650
-1.898394
-1.821209
-0.953155
-0.959536
-1.611171
-1.691514
-1.822060
-1.356051
-1.143219
-1.187667
-1.581657
-2.146912
-2.032260
-1.351672
-1.516741
-1.421053
-1.494682
-1.866985
-2.121463
-1.389752
-0.809922
-0.922022
-1.800851
-2.063034
-2.082769
-1.541181
-1.168466
-1.195679
-1.070892
-1.944350
-1.899477
-1.369312
-1.329996
-1.201237
-1.300692
-1.745529
-2.035535
-1.132109
-0.923903
-0.867955
-1.292603
-1.842045
-2.082315
-1.292667
-1.129363
-0.831644
-1.172056
-1.588215
-1.885807
-1.082450
-0.944573
-0.631370
-0.972813
-1.185041
-1.892669
-0.860968
-0.603114
-0.562180
-1.068617
-1.317903
-1.391635
-1.005431
-0.530779
-0.273818
-0.705415
-0.989929
-1.110424
-0.751809
-0.489606
-0.170983
-0.699986
-0.998815
-0.839370
-0.650756
-0.186297
-0.112126
-0.421006
-0.459173
-1.010971
-0.105049
0.047400
0.300724
-0.269131
-0.790008
-0.703977
0.003775
0.529577
0.499700
-0.206938
-0.753591
-0.384253
0.105596
-0.038084
0.500672
0.513298
-0.345183
-0.405058
-0.013553
0.289945
0.585278
0.341358
-0.317927
-0.039793
0.530629
0.717733
0.965001
0.576622
0.051726
0.481135
0.297746
1.069299
0.857769
0.494317
0.322135
0.480510
0.756651
1.443983
1.024027
0.871372
0.290896
0.271586
0.355366
1.491948
1.739704
1.056064
0.822383
0.582479
0.780737
1.308013
1.344189
1.313928
0.585632
0.720768
0.889140
1.571940
1.302634
1.073041
0.950610
1.158300
1.363580
1.735507
1.946703
1.460064
0.406519
0.552242
1.190569
1.628609
1.495761
1.259014
0.786675
1.203596
1.304590
1.613789
1.794503
1.315881
1.079788
0.987952
1.176327
2.028071
1.844131
1.368166
0.888411
1.220504
1.475254
1.621134
2.366843
1.431661
1.120870
1.136637
1.235735
2.171980
1.975019
1.516903
1.321024
1.077800
1.128974
1.897022
2.126780
1.695401
1.064666
0.664272
1.645873
1.838100
1.877314
1.650919
1.030333
0.192863
1.024493
1.610979
1.504059
1.345153
0.896417
0.711411
1.500383
1.524778
1.595618
1.080050
0.582490
0.753451
0.876939
1.506067
1.713795
1.256209
0.249481
0.697826
0.935224
1.526816
1.447567
0.892920
0.496046
0.595466
1.026883
1.139145
0.997629
0.719930
0.548027
0.385550
0.801430
1.039450
0.946834
1.054075
0.156059
0.141611
0.497447
0.969814
0.862411
0.254682
0.099124
0.258325
0.410009
0.626709
0.756166
0.485133
0.173769
-0.494937
0.210802
0.503149
0.667450
0.127969
-0.487925
-0.763037
-0.242835
0.280319
0.315459
0.140963
-0.677444
-0.515399
-0.006835
0.260221
0.199819
-0.403181
-0.576616
-0.449816
-0.277927
0.091096
0.046539
-0.256718
-0.992492
-1.058309
-0.445814
-0.209557
0.001272
-0.931443
-0.834692
-1.274081
-0.674921
-0.410563
-0.201314
-1.087239
-1.476559
-0.962607
-1.076756
-0.613558
-0.486246
-1.115877
-1.383802
-1.201523
-1.013084
-0.271245
-0.928644
-1.150382
-1.722538
-1.494805
-1.408104
-1.094446
-0.840489
-1.576533
-1.844358
-1.791855
-1.600570
-0.737250
-0.804903
-1.439890
-2.040786
-1.831639
-1.390811
-1.371895
-0.688299
-1.307559
-2.189645
-1.453961
-1.457294
-1.297645
-1.196940
-1.400333
-2.181340
-1.994943
-1.493732
-1.130975
-1.010162
-1.630575
-1.974899
-1.889607
-1.941057
-1.449313
-1.280074
-1.484029
-1.892125
-2.077921
-1.234553
-0.835126
-1.094191
-0.823065
-1.989983
-1.715328
-1.486035
-1.379179
-0.651389
-1.665585
-1.863010
-1.484829
-1.298039
-0.909353
-1.001994
-1.345624
-1.437774
-1.895523
-1.401548
-1.001671
-0.978703
-1.348956
-1.608276
-1.698417
-1.418636
-0.485977
-0.972625
-1.279613
-1.611788
-1.944994
-1.357586
-0.961212
-1.214564
-0.666853
-1.650792
-1.314496
-1.023382
-0.769511
-0.555196
-0.875187
-1.593297
-1.100290
-0.642310
-0.442533
-0.274205
-1.047460
-1.095678
-1.208675
-0.400927
-0.453346
0.168362
-0.634652
-0.954016
-0.724380
-0.331597
-0.265018
-0.243335
-0.646490
-0.651610
-0.863532
-0.461977
0.106990
0.328299
-0.312850
-0.621309
-1.115218
-0.321517
0.062903
0.179665
-0.246579
-0.580247
-0.562692
0.131549
